# freq   SSP(yyz)   PPP(zzz)
1550 3.485061873e-06 0.0002022145414
1551 3.510018543e-06 0.0002068452861
1552 3.534675276e-06 0.0002116345151
1553 3.558990238e-06 0.0002165894535
1554 3.58291869e-06 0.0002217177382
1555 3.606412823e-06 0.0002270274469
1556 3.629421567e-06 0.0002325271279
1557 3.651890414e-06 0.0002382258336
1558 3.673761217e-06 0.000244133156
1559 3.694971992e-06 0.0002502592656
1560 3.715456712e-06 0.0002566149533
1561 3.735145096e-06 0.0002632116755
1562 3.753962399e-06 0.0002700616044
1563 3.771829197e-06 0.0002771776809
1564 3.788661177e-06 0.0002845736733
1565 3.804368933e-06 0.000292264241
1566 3.818857766e-06 0.0003002650039
1567 3.832027505e-06 0.0003085926181
1568 3.843772349e-06 0.0003172648583
1569 3.853980728e-06 0.0003263007083
1570 3.862535215e-06 0.0003357204602
1571 3.869312476e-06 0.0003455458226
1572 3.874183299e-06 0.0003558000392
1573 3.877012684e-06 0.00036650802
1574 3.877660059e-06 0.0003776964843
1575 3.875979609e-06 0.0003893941192
1576 3.871820774e-06 0.0004016317537
1577 3.865028948e-06 0.0004144425506
1578 3.855446422e-06 0.0004278622194
1579 3.842913635e-06 0.0004419292512
1580 3.827270807e-06 0.0004566851789
1581 3.808360025e-06 0.0004721748662
1582 3.786027907e-06 0.0004884468289
1583 3.76012896e-06 0.0005055535911
1584 3.730529789e-06 0.0005235520839
1585 3.69711436e-06 0.000542504089
1586 3.659790546e-06 0.0005624767345
1587 3.61849825e-06 0.0005835430509
1588 3.573219457e-06 0.0006057825929
1589 3.523990665e-06 0.0006292821388
1590 3.470918237e-06 0.000654136477
1591 3.41419734e-06 0.0006804492913
1592 3.354135315e-06 0.000708334161
1593 3.291180515e-06 0.0007379156912
1594 3.225957884e-06 0.0007693307926
1595 3.159312921e-06 0.0008027301338
1596 3.092366001e-06 0.0008382797921
1597 3.026579619e-06 0.0008761631327
1598 2.963841699e-06 0.0009165829524
1599 2.906568987e-06 0.0009597639295
1600 2.857835589e-06 0.001005955427
1601 2.821533052e-06 0.00105543471
1602 2.802570146e-06 0.001108510636
1603 2.80712275e-06 0.001165527905
1604 2.842947101e-06 0.001226871952
1605 2.919773472e-06 0.001292974595
1606 3.049802165e-06 0.00136432055
1607 3.248330061e-06 0.001441454966
1608 3.534544253e-06 0.001524992135
1609 3.932530026e-06 0.001615625551
1610 4.472554609e-06 0.001714139541
1611 5.192706483e-06 0.001821422667
1612 6.140994091e-06 0.001938483132
1613 7.378039041e-06 0.002066466414
1614 8.980539271e-06 0.002206675302
1615 1.104572951e-05 0.002360592439
1616 1.369713174e-05 0.002529905287
1617 1.709196944e-05 0.002716533159
1618 2.143071555e-05 0.00292265543
1619 2.696935248e-05 0.003150739236
1620 3.403502895e-05 0.003403563647
1621 4.304587523e-05 0.003684235242
1622 5.453572269e-05 0.003996186938
1623 6.918424967e-05 0.004343147326
1624 8.785242953e-05 0.004729061293
1625 0.0001116217244 0.005157934039
1626 0.0001418326652 0.005633560097
1627 0.0001801134334 0.006159088527
1628 0.000228380783 0.006736370506
1629 0.0002887833302 0.00736504734
1630 0.0003635416175 0.008041386289
1631 0.0004546252431 0.00875698792
1632 0.0005632075865 0.00949769972
1633 0.0006888771758 0.0102433662
1634 0.0008286911354 0.01096931302
1635 0.0009763403125 0.01165042944
1636 0.001121900484 0.01226801646
1637 0.001252714687 0.01281808876
1638 0.001355703139 0.01331814137
1639 0.001420802368 0.01380878745
1640 0.001444563028 0.01434809571
1641 0.001432606179 0.01499935932
1642 0.001399883742 0.01581562945
1643 0.001368404854 0.01682528132
1644 0.001362954211 0.01802223937
1645 0.001405967696 0.01936322436
1646 0.001512884093 0.02077318592
1647 0.001688998748 0.02215879692
1648 0.001928386278 0.02342780374
1649 0.002215013481 0.02450909428
1650 0.002525684213 0.02536631423
1651 0.002833981886 0.02599927081
1652 0.003114198104 0.02643256175
1653 0.00334455627 0.02669680464
1654 0.003509583631 0.02681076595
1655 0.003601737435 0.02677138181
1656 0.003622167477 0.02655451342
1657 0.003580170542 0.02612446258
1658 0.003491002728 0.02544684556
1659 0.003372364846 0.02449902089
1660 0.003240564101 0.02327502351
1661 0.003107505769 0.02178584038
1662 0.002979227679 0.02005812206
1663 0.002856075915 0.01813385418
1664 0.002734200294 0.01607103911
1665 0.002607850103 0.01394303545
1666 0.002471831349 0.01183366326
1667 0.002323426887 0.00982719256
1668 0.002163227485 0.007995739484
1669 0.001994748511 0.006388807858
1670 0.001823212462 0.005028859839
1671 0.001654135352 0.003913620304
1672 0.001492242188 0.003022852214
1673 0.001340920645 0.00232635495
1674 0.001202146557 0.001790757573
1675 0.001076694713 0.001384099769
1676 0.0009644573994 0.001078276721
1677 0.0008647560177 0.0008499135036
1678 0.0007765932231 0.0006802903727
1679 0.0006988339273 0.0005548010402
1680 0.0006303235668 0.0004622518028
1681 0.0005699585399 0.000394169332
1682 0.0005167233865 0.0003441928723
1683 0.0004697064129 0.0003075739999
1684 0.0004281022299 0.000280780795
1685 0.000391206921 0.0002611923876
1686 0.0003584095082 0.0002468670417
1687 0.0003291819541 0.0002363679085
1688 0.0003030690015 0.0002286329647
1689 0.0002796785514 0.0002228783098
1690 0.0002586729182 0.0002185264096
1691 0.0002397610798 0.00021515289
1692 0.0002226919258 0.0002124470783
1693 0.0002072484366 0.0002101827201
1694 0.0001932427025 0.0002081962238
1695 0.0001805116814 0.0002063704778
1696 0.0001689135949 0.0002046227992
1697 0.0001583248721 0.0002028959485
1698 0.000148637558 0.0002011514251
1699 0.0001397571171 0.0001993644614
1700 0.0001316005682 0.000197520285
