# freq   SSP(yyz)   PPP(zzz)
1550 7.810635248e-05 2.489537977e-05
1551 7.96848507e-05 2.544555126e-05
1552 8.131108667e-05 2.601423001e-05
1553 8.298698001e-05 2.660225713e-05
1554 8.471454653e-05 2.721052211e-05
1555 8.649590394e-05 2.783996613e-05
1556 8.833327804e-05 2.849158577e-05
1557 9.022900929e-05 2.916643692e-05
1558 9.218555991e-05 2.986563908e-05
1559 9.420552137e-05 3.059038e-05
1560 9.629162253e-05 3.134192074e-05
1561 9.844673836e-05 3.212160113e-05
1562 0.0001006738992 3.293084577e-05
1563 0.0001029763009 3.377117051e-05
1564 0.0001053573154 3.464418957e-05
1565 0.0001078205025 3.555162322e-05
1566 0.0001103696222 3.649530631e-05
1567 0.0001130086482 3.747719747e-05
1568 0.0001157417823 3.849938924e-05
1569 0.00011857347 3.956411921e-05
1570 0.0001215084175 4.067378214e-05
1571 0.0001245516095 4.183094344e-05
1572 0.0001277083292 4.303835381e-05
1573 0.0001309841793 4.429896555e-05
1574 0.0001343851052 4.561595042e-05
1575 0.0001379174196 4.699271941e-05
1576 0.0001415878299 4.843294462e-05
1577 0.0001454034671 4.99405835e-05
1578 0.0001493719176 5.151990564e-05
1579 0.0001535012582 5.317552266e-05
1580 0.0001578000931 5.491242136e-05
1581 0.0001622775953 5.673600063e-05
1582 0.0001669435509 5.865211274e-05
1583 0.0001718084079 6.066710934e-05
1584 0.0001768833292 6.278789303e-05
1585 0.0001821802509 6.502197514e-05
1586 0.0001877119456 6.737754058e-05
1587 0.0001934920927 6.986352084e-05
1588 0.0001995353539 7.248967621e-05
1589 0.0002058574582 7.526668855e-05
1590 0.0002124752941 7.820626629e-05
1591 0.0002194070114 8.13212633e-05
1592 0.0002266721343 8.462581382e-05
1593 0.0002342916861 8.813548594e-05
1594 0.0002422883276 9.186745646e-05
1595 0.0002506865112 9.584071052e-05
1596 0.0002595126529 0.0001000762699
1597 0.000268795325 0.0001045974548
1598 0.0002785654721 0.0001094301844
1599 0.0002888566556 0.0001146033226
1600 0.0002997053308 0.0001201490769
1601 0.0003111511627 0.0001261034588
1602 0.0003232373897 0.0001325068172
1603 0.0003360112429 0.0001394044558
1604 0.0003495244366 0.000146847351
1605 0.0003638337443 0.000154892986
1606 0.0003790016854 0.0001636063222
1607 0.0003950973498 0.000173060931
1608 0.0004121974028 0.0001833403139
1609 0.0004303873238 0.0001945394408
1610 0.0004497629548 0.0002067665428
1611 0.0004704324621 0.0002201451975
1612 0.000492518857 0.0002348167468
1613 0.0005161632781 0.0002509430881
1614 0.0005415293213 0.0002687098738
1615 0.0005688088263 0.0002883301378
1616 0.0005982296949 0.0003100483434
1617 0.00063006657 0.0003341447895
1618 0.0006646555554 0.0003609402242
1619 0.0007024146663 0.0003908003611
1620 0.0007438724226 0.0004241397439
1621 0.0007897080049 0.0004614240129
1622 0.0008408077812 0.0005031690144
1623 0.0008983448467 0.0005499342677
1624 0.0009638905154 0.0006023069543
1625 0.001039569286 0.0006608707049
1626 0.001128271056 0.0007261510219
1627 0.001233934839 0.0007985264196
1628 0.001361913863 0.0008780921335
1629 0.001519417399 0.000964463574
1630 0.001715991683 0.00105651348
1631 0.001963941745 0.001152056131
1632 0.002278504653 0.001247530789
1633 0.002677481596 0.001337796135
1634 0.003179984482 0.001416210845
1635 0.003804065067 0.001475194167
1636 0.004563373728 0.001507361555
1637 0.005463584276 0.001507076477
1638 0.006499773729 0.001471941253
1639 0.007655770111 0.001403602149
1640 0.008905529329 0.001307465806
1641 0.01021541803 0.001191432084
1642 0.01154574403 0.00106419233
1643 0.01285046002 0.0009337328445
1644 0.01407543109 0.0008064397812
1645 0.01515730102 0.0006868538627
1646 0.01602588996 0.0005778751591
1647 0.01661227598 0.0004811419569
1648 0.01686192933 0.0003973735821
1649 0.01674863264 0.0003265986409
1650 0.01628301124 0.0002683042604
1651 0.01551138943 0.0002215825771
1652 0.01450550569 0.0001853164834
1653 0.0133478207 0.0001583851068
1654 0.01211792086 0.0001398335868
1655 0.01088325462 0.0001289593254
1656 0.009694611209 0.0001253012657
1657 0.008585223235 0.000128553934
1658 0.007572251582 0.0001384457241
1659 0.00665980524 0.0001546151676
1660 0.005842858226 0.0001764981279
1661 0.005111401958 0.0002032226035
1662 0.004454179003 0.000233513192
1663 0.003861499651 0.0002656341925
1664 0.00332685407 0.0002974286371
1665 0.002847221427 0.0003265089758
1666 0.002422192833 0.0003506015472
1667 0.002052320352 0.0003679564352
1668 0.001737367101 0.0003776683378
1669 0.001475135179 0.0003797764366
1670 0.00126120953 0.0003751183865
1671 0.001089489394 0.0003650271651
1672 0.0009530913289 0.0003510032931
1673 0.000845212837 0.0003344614868
1674 0.0007597283029 0.0003165869179
1675 0.0006914784814 0.0002982871098
1676 0.0006363227443 0.0002802057118
1677 0.0005910505254 0.0002627660075
1678 0.0005532315518 0.0002462221462
1679 0.0005210555539 0.0002307062968
1680 0.0004931873962 0.0002162670825
1681 0.0004686473238 0.0002028986677
1682 0.0004467171457 0.0001905616739
1683 0.0004268692185 0.000179197644
1684 0.0004087138795 0.000168738716
1685 0.0003919611032 0.0001591138817
1686 0.0003763927918 0.000150252884
1687 0.0003618428633 0.0001420885198
1688 0.0003481829842 0.00013455789
1689 0.0003353123566 0.0001276029708
1690 0.0003231504025 0.0001211707577
1691 0.0003116315157 0.0001152131522
1692 0.0003007012847 0.0001096867003
1693 0.0002903137658 0.0001045522563
1694 0.0002804295047 9.977461539e-05
1695 0.0002710140933 9.532214345e-05
1696 0.0002620371111 9.116642109e-05
1697 0.0002534713416 8.728191001e-05
1698 0.0002452921883 8.364564658e-05
1699 0.0002374772344 8.023696381e-05
1700 0.0002300059079 7.703724124e-05
