# freq   SSP(yyz)   PPP(zzz)
1550 4.481208302e-05 8.52305056e-06
1551 4.580617363e-05 8.766859753e-06
1552 4.683328437e-05 9.020479148e-06
1553 4.789487756e-05 9.28441478e-06
1554 4.899249652e-05 9.559204493e-06
1555 5.012777104e-05 9.845420298e-06
1556 5.130242319e-05 1.014367094e-05
1557 5.251827357e-05 1.045460467e-05
1558 5.377724812e-05 1.077891229e-05
1559 5.508138545e-05 1.111733043e-05
1560 5.643284473e-05 1.147064513e-05
1561 5.783391433e-05 1.183969578e-05
1562 5.928702105e-05 1.222537936e-05
1563 6.079474022e-05 1.262865512e-05
1564 6.235980664e-05 1.305054967e-05
1565 6.398512642e-05 1.349216256e-05
1566 6.567378993e-05 1.39546724e-05
1567 6.742908578e-05 1.443934358e-05
1568 6.925451618e-05 1.49475336e-05
1569 7.115381357e-05 1.548070116e-05
1570 7.313095884e-05 1.60404151e-05
1571 7.519020117e-05 1.662836416e-05
1572 7.733607984e-05 1.724636783e-05
1573 7.957344795e-05 1.789638825e-05
1574 8.190749856e-05 1.858054343e-05
1575 8.434379327e-05 1.930112182e-05
1576 8.688829367e-05 2.006059852e-05
1577 8.954739591e-05 2.086165321e-05
1578 9.232796875e-05 2.170719009e-05
1579 9.523739552e-05 2.260036007e-05
1580 9.82836204e-05 2.354458547e-05
1581 0.0001014751997 2.454358758e-05
1582 0.0001048213582 2.560141746e-05
1583 0.0001083320524 2.672249035e-05
1584 0.0001120180398 2.791162434e-05
1585 0.0001158909561 2.917408358e-05
1586 0.0001199634019 3.051562704e-05
1587 0.000124249038 3.194256325e-05
1588 0.0001287626928 3.346181211e-05
1589 0.000133520482 3.508097468e-05
1590 0.0001385399425 3.680841215e-05
1591 0.0001438401827 3.865333532e-05
1592 0.000149442051 4.062590627e-05
1593 0.0001553683261 4.273735395e-05
1594 0.0001616439304 4.5000106e-05
1595 0.0001682961716 4.742793923e-05
1596 0.0001753550161 5.003615183e-05
1597 0.0001828533977 5.284176082e-05
1598 0.0001908275691 5.586372887e-05
1599 0.0001993175009 5.912322546e-05
1600 0.0002083673359 6.264392815e-05
1601 0.0002180259081 6.645237088e-05
1602 0.0002283473355 7.057834751e-05
1603 0.000239391699 7.505538039e-05
1604 0.000251225822 7.992126541e-05
1605 0.0002639241652 8.521870769e-05
1606 0.0002775698579 9.099606413e-05
1607 0.0002922558862 9.730821273e-05
1608 0.000308086465 0.0001042175722
1609 0.0003251786246 0.0001117952997
1610 0.0003436640456 0.0001201227001
1611 0.0003636911838 0.0001292928867
1612 0.0003854277303 0.0001394127379
1613 0.0004090634582 0.0001506052061
1614 0.0004348135133 0.0001630120389
1615 0.0004629222068 0.0001767969834
1616 0.0004936673716 0.0001921495482
1617 0.0005273653346 0.000209289403
1618 0.000564376543 0.0002284714879
1619 0.0006051118484 0.0002499918884
1620 0.0006500393938 0.0002741944885
1621 0.0006996919494 0.0003014783364
1622 0.0007546743879 0.0003323055166
1623 0.0008156707538 0.0003672090915
1624 0.0008834500569 0.0004068003184
1625 0.0009588694881 0.0004517738158
1626 0.001042873292 0.000502908635
1627 0.001136485183 0.0005610623355
1628 0.001240792375 0.0006271543845
1629 0.001356920824 0.0007021351026
1630 0.001486005529 0.0007869381099
1631 0.001629168399 0.0008824197403
1632 0.001787530657 0.0009893003828
1633 0.001962304664 0.001108140871
1634 0.002155021664 0.00123940688
1635 0.002367935659 0.001383680428
1636 0.002604572869 0.001542045696
1637 0.002870263979 0.001716590802
1638 0.003172348091 0.001910851931
1639 0.003519670348 0.002129953665
1640 0.003921092644 0.00238023859
1641 0.004382991223 0.002668318492
1642 0.004906037792 0.002999628489
1643 0.00548186585 0.003376660785
1644 0.006090472208 0.003797136112
1645 0.006699371002 0.00425252422
1646 0.007265516513 0.004727539153
1647 0.007740611626 0.005201311592
1648 0.008079351172 0.005650575223
1649 0.008248571479 0.006054300297
1650 0.008234157527 0.006398203565
1651 0.008043081633 0.006677271536
1652 0.007700142249 0.006895272673
1653 0.007241315982 0.007061679554
1654 0.006706497582 0.007187475393
1655 0.006133600973 0.007281445469
1656 0.005554638956 0.007347958615
1657 0.004993564169 0.007386426237
1658 0.004465542381 0.00739197667
1659 0.003977487504 0.007356624627
1660 0.003529684519 0.007270409902
1661 0.003118138607 0.007122457414
1662 0.002737140145 0.006902327056
1663 0.002381548939 0.006602067802
1664 0.002048410659 0.006218967854
1665 0.001737640064 0.005758273913
1666 0.001451669545 0.005234584855
1667 0.001194235872 0.004670765741
1668 0.0009687961134 0.004094270227
1669 0.0007772065948 0.003532118762
1670 0.0006191148368 0.003006443783
1671 0.0004921183763 0.002532013564
1672 0.0003924152023 0.002115996704
1673 0.0003155798236 0.001759302946
1674 0.0002572044052 0.001458558397
1675 0.0002133051439 0.001207993682
1676 0.0001805099874 0.001000893488
1677 0.0001560923825 0.0008305438573
1678 0.0001379179662 0.0006907610458
1679 0.0001243539614 0.0005761271092
1680 0.0001141715661 0.000482044708
1681 0.0001064566866 0.0004046935904
1682 0.0001005349446 0.0003409420897
1683 9.59117805e-05 0.0002882448931
1684 9.222612481e-05 0.0002445436338
1685 8.921530821e-05 0.000208177908
1686 8.668885123e-05 0.0001778092746
1687 8.450906448e-05 0.0001523581755
1688 8.257677468e-05 0.0001309525211
1689 8.082086086e-05 0.0001128862613
1690 7.919060076e-05 9.75862377e-05
1691 7.765007947e-05 8.458577016e-05
1692 7.617410732e-05 7.350364954e-05
1693 7.474524061e-05 6.402743746e-05
1694 7.335160783e-05 5.590018105e-05
1695 7.19853244e-05 4.890982857e-05
1696 7.064133752e-05 4.288077958e-05
1697 6.931658544e-05 3.766712254e-05
1698 6.800938715e-05 3.314720761e-05
1699 6.671900043e-05 2.92192784e-05
1700 6.544530344e-05 2.579794471e-05
