# freq   SSP(yyz)   PPP(zzz)
1550 1.978971272e-05 5.199226825e-05
1551 2.049791736e-05 5.295222912e-05
1552 2.124016818e-05 5.393866578e-05
1553 2.201851346e-05 5.495254371e-05
1554 2.283514952e-05 5.599487179e-05
1555 2.369243323e-05 5.706670462e-05
1556 2.459289565e-05 5.816914487e-05
1557 2.553925716e-05 5.930334596e-05
1558 2.653444399e-05 6.047051467e-05
1559 2.758160638e-05 6.167191414e-05
1560 2.868413872e-05 6.290886686e-05
1561 2.984570157e-05 6.418275796e-05
1562 3.107024611e-05 6.549503867e-05
1563 3.236204112e-05 6.684722997e-05
1564 3.372570279e-05 6.82409265e-05
1565 3.516622778e-05 6.967780066e-05
1566 3.668902989e-05 7.115960705e-05
1567 3.829998075e-05 7.268818713e-05
1568 4.000545512e-05 7.426547412e-05
1569 4.18123812e-05 7.589349834e-05
1570 4.37282969e-05 7.757439278e-05
1571 4.57614125e-05 7.931039907e-05
1572 4.792068077e-05 8.110387379e-05
1573 5.021587547e-05 8.295729521e-05
1574 5.265767935e-05 8.487327049e-05
1575 5.525778296e-05 8.685454324e-05
1576 5.802899583e-05 8.890400171e-05
1577 6.098537159e-05 9.102468733e-05
1578 6.414234927e-05 9.321980397e-05
1579 6.751691291e-05 9.549272769e-05
1580 7.112777227e-05 9.78470172e-05
1581 7.499556775e-05 0.0001002864249
1582 7.914310325e-05 0.0001028149089
1583 8.359561116e-05 0.0001054366454
1584 8.838105458e-05 0.0001081560425
1585 9.353047266e-05 0.0001109777544
1586 9.907837588e-05 0.0001139066971
1587 0.0001050631996 0.0001169480651
1588 0.0001115278255 0.000120107349
1589 0.0001185201824 0.0001233903556
1590 0.0001260939396 0.0001268032281
1591 0.00013430931 0.00013035247
1592 0.0001432339811 0.0001340449699
1593 0.0001529441979 0.0001378880299
1594 0.0001635260249 0.0001418893972
1595 0.0001750768212 0.0001460572997
1596 0.0001877069683 0.0001504004876
1597 0.0002015418997 0.0001549282806
1598 0.000216724492 0.0001596506254
1599 0.0002334178878 0.0001645781639
1600 0.0002518088401 0.0001697223171
1601 0.0002721116838 0.0001750953892
1602 0.0002945730665 0.0001807106996
1603 0.0003194776006 0.0001865827522
1604 0.0003471546343 0.0001927274551
1605 0.0003779863891 0.0001991624102
1606 0.0004124177665 0.0002059072977
1607 0.0004509682015 0.0002129843919
1608 0.0004942460305 0.0002204192598
1609 0.0005429659534 0.0002282417105
1610 0.0005979703118 0.0002364870986
1611 0.0006602550756 0.000245198118
1612 0.0007310016441 0.0002544272864
1613 0.00081161582 0.0002642404005
1614 0.0009037756191 0.0002747213593
1615 0.00100948992 0.0002859789228
1616 0.001131170332 0.0002981562113
1617 0.001271719022 0.0003114440926
1618 0.001434635508 0.0003261000875
1619 0.001624145467 0.0003424751013
1620 0.00184535408 0.0003610512311
1621 0.002104424952 0.0003824951704
1622 0.002408782239 0.0004077334044
1623 0.002767327042 0.0004380574472
1624 0.003190647158 0.0004752696429
1625 0.003691178858 0.0005218819562
1626 0.004283246291 0.0005813803157
1627 0.004982854021 0.0006585625373
1628 0.005807038938 0.0007599432139
1629 0.006772505721 0.0008941852951
1630 0.007893202573 0.001072453224
1631 0.009176507739 0.001308475565
1632 0.01061791396 0.001617960597
1633 0.01219467351 0.002016874731
1634 0.01385987685 0.002518097799
1635 0.01553963166 0.003126314387
1636 0.01713656474 0.003831847172
1637 0.01854160583 0.004605338413
1638 0.01965247428 0.005396070322
1639 0.02039307019 0.006136354062
1640 0.02072629568 0.006752425881
1641 0.02065565715 0.007179415891
1642 0.02021659574 0.007375683366
1643 0.01946293529 0.007331434347
1644 0.01845468749 0.007068539309
1645 0.01725118865 0.006632136774
1646 0.01591007204 0.006077980724
1647 0.01448961022 0.005460541994
1648 0.01305061734 0.004825280528
1649 0.01165492295 0.004205814458
1650 0.01036000234 0.003624726633
1651 0.009212066788 0.003096147895
1652 0.008240899731 0.002628631344
1653 0.007458460163 0.002227479837
1654 0.006861062797 0.001896189909
1655 0.006433486284 0.001636979137
1656 0.006153255492 0.00145058436
1657 0.005994047346 0.00133570257
1658 0.00592790705 0.001288506901
1659 0.005926385167 0.001302513712
1660 0.005960901142 0.001368780126
1661 0.006002794935 0.001476205525
1662 0.00602368705 0.001611764443
1663 0.00599679332 0.001760759321
1664 0.005899539463 0.00190742683
1665 0.005717112258 0.002036227736
1666 0.005445710525 0.002133803909
1667 0.005093830997 0.002191060354
1668 0.00468051487 0.002204519183
1669 0.004230932818 0.002176320249
1670 0.003771000986 0.002112900676
1671 0.003322951707 0.002022982111
1672 0.002902945079 0.001915638763
1673 0.002520699144 0.001798945564
1674 0.00218044433 0.001679317792
1675 0.001882411372 0.00156139441
1676 0.001624295672 0.0014482389
1677 0.001402430789 0.001341667196
1678 0.001212611069 0.001242583826
1679 0.001050608556 0.001151269664
1680 0.00091246264 0.001067604501
1681 0.0007946174958 0.0009912280287
1682 0.0006939658164 0.0009216505449
1683 0.0006078395283 0.0008583258686
1684 0.0005339737076 0.0008006973531
1685 0.0004704595305 0.0007482254617
1686 0.0004156952245 0.0007004031094
1687 0.0003683396998 0.0006567631151
1688 0.0003272709791 0.0006168807241
1689 0.0002915501038 0.0005803731686
1690 0.0002603904189 0.0005468975478
1691 0.0002331317761 0.0005161478459
1692 0.0002092190479 0.0004878515962
1693 0.0001881843256 0.0004617665007
1694 0.0001696322154 0.0004376771797
1695 0.00015322771 0.0004153921476
1696 0.000138686189 0.0003947410557
1697 0.0001257651689 0.0003755722147
1698 0.0001142574905 0.0003577503892
1699 0.0001039856827 0.0003411548464
1700 9.479729145e-05 0.0003256776387
