# freq   SSP(yyz)   PPP(zzz)
1550 1.228835388e-05 1.182131048e-06
1551 1.252663987e-05 1.225038435e-06
1552 1.277170831e-05 1.270033245e-06
1553 1.302380967e-05 1.317242349e-06
1554 1.328320555e-05 1.366801864e-06
1555 1.355016928e-05 1.418857947e-06
1556 1.382498649e-05 1.473567652e-06
1557 1.410795573e-05 1.531099883e-06
1558 1.439938915e-05 1.591636437e-06
1559 1.469961317e-05 1.655373152e-06
1560 1.500896926e-05 1.722521172e-06
1561 1.532781465e-05 1.793308347e-06
1562 1.56565232e-05 1.867980773e-06
1563 1.599548624e-05 1.946804499e-06
1564 1.634511345e-05 2.030067415e-06
1565 1.670583382e-05 2.118081346e-06
1566 1.707809669e-05 2.211184374e-06
1567 1.746237272e-05 2.309743418e-06
1568 1.785915505e-05 2.414157108e-06
1569 1.826896047e-05 2.524858984e-06
1570 1.869233055e-05 2.642321059e-06
1571 1.912983301e-05 2.767057815e-06
1572 1.958206297e-05 2.899630651e-06
1573 2.00496444e-05 3.040652889e-06
1574 2.053323153e-05 3.190795369e-06
1575 2.103351038e-05 3.350792752e-06
1576 2.155120034e-05 3.521450604e-06
1577 2.208705582e-05 3.703653385e-06
1578 2.264186791e-05 3.898373464e-06
1579 2.321646619e-05 4.106681317e-06
1580 2.381172056e-05 4.329757083e-06
1581 2.442854306e-05 4.568903667e-06
1582 2.506788988e-05 4.825561648e-06
1583 2.573076335e-05 5.10132625e-06
1584 2.641821397e-05 5.397966715e-06
1585 2.713134254e-05 5.717448445e-06
1586 2.787130235e-05 6.061958376e-06
1587 2.863930142e-05 6.433934102e-06
1588 2.943660481e-05 6.836097382e-06
1589 3.026453709e-05 7.271492771e-06
1590 3.112448488e-05 7.743532251e-06
1591 3.201789963e-05 8.256046925e-06
1592 3.294630065e-05 8.813347017e-06
1593 3.391127853e-05 9.420291692e-06
1594 3.491449916e-05 1.008237049e-05
1595 3.595770852e-05 1.080579856e-05
1596 3.704273865e-05 1.159762831e-05
1597 3.817151528e-05 1.246588065e-05
1598 3.93460679e-05 1.341969969e-05
1599 4.056854306e-05 1.446953557e-05
1600 4.184122262e-05 1.562736118e-05
1601 4.31665485e-05 1.690692976e-05
1602 4.454715705e-05 1.832408199e-05
1603 4.598592642e-05 1.989711312e-05
1604 4.748604262e-05 2.164721335e-05
1605 4.905109128e-05 2.35989974e-05
1606 5.068518563e-05 2.578114343e-05
1607 5.239314507e-05 2.822716618e-05
1608 5.418074444e-05 3.097635511e-05
1609 5.605506229e-05 3.407491609e-05
1610 5.802496812e-05 3.757736456e-05
1611 6.010180444e-05 4.154822961e-05
1612 6.230034298e-05 4.606414309e-05
1613 6.464012719e-05 5.121640525e-05
1614 6.714735967e-05 5.711413945e-05
1615 6.985756053e-05 6.388817326e-05
1616 7.281931736e-05 7.169581039e-05
1617 7.609958361e-05 8.072668669e-05
1618 7.979117462e-05 9.120992828e-05
1619 8.402338279e-05 0.0001034228432
1620 8.897701386e-05 0.0001177013623
1621 9.49056709e-05 0.0001344523725
1622 0.0001021658173 0.0001541679065
1623 0.0001112590623 0.0001774407799
1624 0.0001228912159 0.0002049805803
1625 0.0001380538322 0.0002376277031
1626 0.0001581348575 0.0002763611485
1627 0.0001850648283 0.0003222927425
1628 0.0002215023009 0.0003766361518
1629 0.0002710542332 0.0004406338451
1630 0.0003385101761 0.0005154205517
1631 0.0004300397196 0.0006018017003
1632 0.0005532607938 0.0006999370698
1633 0.0007170436472 0.0008089530054
1634 0.0009309034731 0.0009265661958
1635 0.001203904139 0.00104887397
1636 0.001543181279 0.001170501902
1637 0.001952444012 0.00128522836
1638 0.002430950921 0.001386999496
1639 0.002973272951 0.00147100247
1640 0.003569669121 0.001534373727
1641 0.004206455575 0.001576296801
1642 0.004865750126 0.001597573533
1643 0.005524490608 0.001599984257
1644 0.006153341815 0.00158574976
1645 0.006716628989 0.00155724121
1646 0.007174498691 0.001516905605
1647 0.007487926022 0.001467273096
1648 0.007625911362 0.001410898245
1649 0.007572680831 0.00135014613
1650 0.007331986697 0.001286847995
1651 0.006926599668 0.001221969224
1652 0.006393369807 0.001155479588
1653 0.005776141799 0.00108655276
1654 0.005119049573 0.001014081739
1655 0.004461563353 0.0009373483087
1656 0.00383538996 0.000856591117
1657 0.003262827931 0.0007732293274
1658 0.002756360499 0.000689638984
1659 0.002319496259 0.0006085902487
1660 0.001948735383 0.0005326042668
1661 0.001636195145 0.000463481227
1662 0.001372244132 0.0004021166279
1663 0.001147612152 0.0003485757457
1664 0.0009547146247 0.0003023204193
1665 0.0007881671601 0.0002624804424
1666 0.000644614787 0.0002280940885
1667 0.0005221034312 0.0001982767596
1668 0.0004192941612 0.0001723051378
1669 0.0003348147102 0.0001496280668
1670 0.0002669250101 0.0001298319517
1671 0.0002135003379 0.0001125919895
1672 0.0001722106256 9.763145969e-05
1673 0.0001407499148 8.469753227e-05
1674 0.000117018235 7.355176326e-05
1675 9.922189325e-05 6.396941699e-05
1676 8.590097077e-05 5.574221354e-05
1677 7.590899991e-05 4.868119606e-05
1678 6.83689832e-05 4.261833843e-05
1679 6.262269681e-05 3.74066909e-05
1680 5.818281131e-05 3.291937833e-05
1681 5.469200516e-05 2.904788593e-05
1682 5.189007148e-05 2.570000924e-05
1683 4.958844084e-05 2.279773592e-05
1684 4.765093541e-05 2.02752241e-05
1685 4.597947062e-05 1.807696435e-05
1686 4.450355005e-05 1.615616045e-05
1687 4.317260353e-05 1.447333266e-05
1688 4.195042534e-05 1.299512998e-05
1689 4.081114855e-05 1.169332967e-05
1690 3.973633651e-05 1.054399981e-05
1691 3.871288338e-05 9.526801162e-06
1692 3.773149975e-05 8.62440624e-06
1693 3.678562059e-05 7.822016598e-06
1694 3.587061841e-05 7.106961553e-06
1695 3.498323668e-05 6.468364471e-06
1696 3.412118235e-05 5.896864871e-06
1697 3.32828336e-05 5.384386642e-06
1698 3.246703064e-05 4.923944379e-06
1699 3.167292669e-05 4.509481209e-06
1700 3.089988247e-05 4.135732709e-06
