# freq   SSP(yyz)   PPP(zzz)
1550 7.297367056e-05 3.073194909e-07
1551 7.468968144e-05 2.899733699e-07
1552 7.646636225e-05 2.747396379e-07
1553 7.830658269e-05 2.619486716e-07
1554 8.021338282e-05 2.51967562e-07
1555 8.218998527e-05 2.452040916e-07
1556 8.423980845e-05 2.421111632e-07
1557 8.636648089e-05 2.431917342e-07
1558 8.857385681e-05 2.4900432e-07
1559 9.086603304e-05 2.60169135e-07
1560 9.324736742e-05 2.773749531e-07
1561 9.572249888e-05 3.013867764e-07
1562 9.829636927e-05 3.330544156e-07
1563 0.0001009742472 3.733220995e-07
1564 0.000103761754 4.232392468e-07
1565 0.0001066648924 4.839725521e-07
1566 0.0001096900776 5.568195598e-07
1567 0.0001128441713 6.432239253e-07
1568 0.0001161345192 7.447925903e-07
1569 0.0001195689925 8.633151336e-07
1570 0.0001231560326 1.000785598e-06
1571 0.0001269047013 1.159427134e-06
1572 0.0001308247357 1.341719868e-06
1573 0.0001349266085 1.550432435e-06
1574 0.0001392215953 1.788657726e-06
1575 0.0001437218488 2.059853449e-06
1576 0.0001484404804 2.367888213e-06
1577 0.0001533916519 2.717093972e-06
1578 0.0001585906765 3.112325775e-06
1579 0.0001640541314 3.559029942e-06
1580 0.0001697999837 4.063321982e-06
1581 0.0001758477303 4.632075761e-06
1582 0.0001822185548 5.273025719e-06
1583 0.0001889355028 5.994884232e-06
1584 0.0001960236789 6.807476587e-06
1585 0.0002035104675 7.721896479e-06
1586 0.0002114257819 8.750685472e-06
1587 0.0002198023448 9.908040481e-06
1588 0.0002286760047 1.121005412e-05
1589 0.0002380860944 1.267499363e-05
1590 0.0002480758376 1.432362527e-05
1591 0.0002586928094 1.617959226e-05
1592 0.0002699894619 1.826985618e-05
1593 0.0002820237221 2.062521343e-05
1594 0.0002948596758 2.328090096e-05
1595 0.0003085683497 2.627730836e-05
1596 0.0003232286089 2.966081673e-05
1597 0.0003389281885 3.34847895e-05
1598 0.0003557648814 3.781074553e-05
1599 0.0003738479091 4.270975139e-05
1600 0.0003932995076 4.826407812e-05
1601 0.000414256764 5.456917787e-05
1602 0.00043687375 6.173604833e-05
1603 0.000461324003 6.989406871e-05
1604 0.0004878034176 7.919441056e-05
1605 0.000516533621 8.981415097e-05
1606 0.0005477659178 0.0001019612464
1607 0.0005817859068 0.0001158805634
1608 0.0006189188881 0.0001318612093
1609 0.000659536198 0.000150245467
1610 0.0007040626282 0.0001714397081
1611 0.0007529851047 0.0001959277539
1612 0.0008068628183 0.0002242872598
1613 0.0008663390016 0.0002572098376
1614 0.0009321545389 0.0002955257862
1615 0.00100516355 0.0003402344856
1616 0.001086350988 0.0003925417075
1617 0.001176852102 0.000453905293
1618 0.001277973253 0.0005260908032
1619 0.00139121299 0.0006112387805
1620 0.001518281287 0.0007119450365
1621 0.001661113233 0.0008313546428
1622 0.001821870956 0.0009732686375
1623 0.002002923658 0.001142259177
1624 0.002206789894 0.001343782889
1625 0.002436018078 0.001584271964
1626 0.0026929704 0.001871166
1627 0.002979462827 0.002212822705
1628 0.003296202956 0.002618211346
1629 0.003641966783 0.003096253199
1630 0.004012482109 0.003654642833
1631 0.004399068285 0.004297998416
1632 0.004787252307 0.005025312076
1633 0.005155852094 0.005826983949
1634 0.005477323207 0.006682263495
1635 0.005720293552 0.007558552728
1636 0.005854820898 0.008414308529
1637 0.005859774823 0.00920657853
1638 0.005730194471 0.009902248391
1639 0.005481532498 0.01048966625
1640 0.005148389811 0.01098613454
1641 0.004777579506 0.01143795173
1642 0.00441777416 0.0119125731
1643 0.004109176217 0.01248520613
1644 0.003876227815 0.01322348341
1645 0.003724907956 0.01417376019
1646 0.003644516519 0.01535180073
1647 0.003612701939 0.01673981157
1648 0.003602052172 0.01829092964
1649 0.003586580413 0.01994071561
1650 0.003546653157 0.02162272372
1651 0.00347140342 0.02328311941
1652 0.003358519016 0.02488950099
1653 0.003212168135 0.02643183196
1654 0.003040224138 0.02791678456
1655 0.002851741657 0.02935867944
1656 0.002655132446 0.03077004734
1657 0.002457082101 0.03215354405
1658 0.002262085949 0.03349564818
1659 0.002072477353 0.03476193552
1660 0.001888839172 0.03589396348
1661 0.001710676687 0.03680876467
1662 0.001537207846 0.03740310216
1663 0.001368114132 0.03756503836
1664 0.001204088837 0.03719387818
1665 0.001047027446 0.03622561714
1666 0.0008997689727 0.03465600369
1667 0.0007654467448 0.03255089645
1668 0.0006466876049 0.03003731502
1669 0.0005449798551 0.0272775538
1670 0.0004604317722 0.02443686001
1671 0.0003919321914 0.02165663991
1672 0.0003375550806 0.01904001376
1673 0.0002950101136 0.01664969199
1674 0.000262003877 0.01451396467
1675 0.0002364644744 0.01263596431
1676 0.0002166435077 0.01100277846
1677 0.0002011335357 0.009592763587
1678 0.0001888386084 0.008380687377
1679 0.0001789252019 0.007340975592
1680 0.0001707698896 0.006449546851
1681 0.0001639118671 0.00568469888
1682 0.0001580133557 0.005027408292
1683 0.000152828196 0.004461296406
1684 0.0001481777221 0.00397242422
1685 0.000143932617 0.003549015414
1686 0.000139999456 0.003181163718
1687 0.0001363108229 0.002860554282
1688 0.0001328180943 0.002580212761
1689 0.0001294861948 0.002334286725
1690 0.0001262897951 0.002117859194
1691 0.0001232105614 0.00192679169
1692 0.0001202351681 0.001757593283
1693 0.0001173538633 0.001607311906
1694 0.0001145594359 0.001473444443
1695 0.0001118464714 0.001353862448
1696 0.0001092108184 0.001246750812
1697 0.0001066492063 0.001150557078
1698 0.0001041589729 0.001063949524
1699 0.0001017378712 0.0009857824212
1700 9.938393343e-05 0.0009150672005
