# freq   SSP(yyz)   PPP(zzz)
1550 4.567671744e-05 0.0001266303975
1551 4.675697932e-05 0.000129180312
1552 4.787516148e-05 0.0001318085025
1553 4.903302773e-05 0.0001345182223
1554 5.023244409e-05 0.0001373128959
1555 5.147538591e-05 0.0001401961301
1556 5.276394552e-05 0.000143171726
1557 5.410034056e-05 0.0001462436918
1558 5.548692296e-05 0.0001494162561
1559 5.692618872e-05 0.000152693883
1560 5.842078842e-05 0.0001560812878
1561 5.997353875e-05 0.0001595834545
1562 6.158743498e-05 0.0001632056541
1563 6.326566451e-05 0.0001669534649
1564 6.501162161e-05 0.0001708327942
1565 6.682892361e-05 0.0001748499021
1566 6.872142833e-05 0.0001790114269
1567 7.069325335e-05 0.0001833244129
1568 7.274879689e-05 0.0001877963407
1569 7.48927608e-05 0.0001924351601
1570 7.713017556e-05 0.0001972493261
1571 7.946642793e-05 0.0002022478374
1572 8.190729106e-05 0.0002074402793
1573 8.445895777e-05 0.0002128368705
1574 8.712807702e-05 0.0002184485136
1575 8.992179422e-05 0.0002242868506
1576 9.284779555e-05 0.0002303643248
1577 9.591435701e-05 0.0002366942468
1578 9.913039859e-05 0.000243290869
1579 0.0001025055443 0.000250169466
1580 0.0001060501886 0.0002573464239
1581 0.0001097755703 0.0002648393391
1582 0.0001136938547 0.0002726671263
1583 0.0001178182248 0.0002808501393
1584 0.0001221629833 0.0002894103036
1585 0.0001267436665 0.0002983712642
1586 0.0001315771712 0.0003077585493
1587 0.0001366818974 0.0003175997524
1588 0.0001420779081 0.0003279247358
1589 0.0001477871094 0.0003387658565
1590 0.0001538334519 0.0003501582193
1591 0.0001602431597 0.0003621399602
1592 0.0001670449875 0.0003747525635
1593 0.0001742705124 0.0003880412182
1594 0.0001819544647 0.0004020552189
1595 0.0001901351033 0.0004168484173
1596 0.0001988546436 0.0004324797322
1597 0.0002081597449 0.0004490137255
1598 0.0002181020683 0.0004665212551
1599 0.0002287389146 0.0004850802161
1600 0.0002401339577 0.0005047763833
1601 0.0002523580868 0.0005257043704
1602 0.0002654903787 0.0005479687255
1603 0.0002796192204 0.0005716851837
1604 0.0002948436091 0.0005969821012
1605 0.0003112746617 0.0006240021021
1606 0.0003290373704 0.0006529039712
1607 0.0003482726508 0.000683864835
1608 0.0003691397352 0.0007170826766
1609 0.0003918189771 0.0007527792434
1610 0.0004165151446 0.0007912034102
1611 0.0004434612971 0.0008326350771
1612 0.0004729233567 0.0008773896895
1613 0.0005052055127 0.0009258234827
1614 0.0005406566204 0.0009783395705
1615 0.0005796777906 0.001035395008
1616 0.0006227314035 0.001097508978
1617 0.0006703518218 0.001165272253
1618 0.0007231581287 0.001239358097
1619 0.0007818692633 0.001320534749
1620 0.0008473219729 0.001409679592
1621 0.0009204920339 0.001507795015
1622 0.001002519186 0.001616025799
1623 0.001094736145 0.001735677535
1624 0.00119870184 0.001868234982
1625 0.001316238487 0.002015378282
1626 0.00144947115 0.002178993204
1627 0.001600866442 0.002361168649
1628 0.001773263578 0.002564169717
1629 0.001969884723 0.002790366629
1630 0.002194301206 0.00304208733
1631 0.002450315679 0.003321343628
1632 0.002741697017 0.00362935851
1633 0.003071677593 0.003965803098
1634 0.003442104125 0.004327655326
1635 0.003852152045 0.004707655551
1636 0.004296614039 0.005092503726
1637 0.004763997982 0.005461242386
1638 0.005235010308 0.00578464087
1639 0.005682342377 0.006026645322
1640 0.006072770303 0.006148775504
1641 0.006372114364 0.006117459095
1642 0.006552453527 0.005912770902
1643 0.006599552548 0.00553561452
1644 0.006517708325 0.00501021829
1645 0.006329995637 0.004380509412
1646 0.00607388664 0.003701581987
1647 0.005794055039 0.003029322756
1648 0.005534740064 0.002411372859
1649 0.005333435551 0.001881504005
1650 0.005216688805 0.001458118375
1651 0.005198000904 0.001146381696
1652 0.005277354711 0.0009425870093
1653 0.005441819354 0.0008389475916
1654 0.005667013768 0.0008272993538
1655 0.00591969287 0.0009009628193
1656 0.006161815011 0.00105484291
1657 0.006355832949 0.00128438646
1658 0.006469991318 0.001584138574
1659 0.00648201174 0.001946397675
1660 0.006380247685 0.002360096121
1661 0.006162722818 0.002809834549
1662 0.005835383953 0.003275145589
1663 0.005410795647 0.003730448451
1664 0.004907606729 0.004146437616
1665 0.00435012581 0.004493430855
1666 0.00376692672 0.004746321532
1667 0.003187887195 0.004889619387
1668 0.00264016331 0.004920507637
1669 0.002144493732 0.004848560103
1670 0.001713188722 0.004692386811
1671 0.001350265851 0.004474824917
1672 0.001053203149 0.004218511731
1673 0.000815334946 0.003942943067
1674 0.0006280668916 0.003663186581
1675 0.000482497581 0.003389837594
1676 0.0003703911354 0.003129658841
1677 0.0002846325514 0.002886457477
1678 0.0002193438879 0.002661933419
1679 0.0001698127259 0.002456381609
1680 0.0001323369741 0.00226922179
1681 0.0001040476443 0.002099373262
1682 8.274121961e-05 0.00194550693
1683 6.67348594e-05 0.001806207235
1684 5.474764694e-05 0.001680071199
1685 4.580625604e-05 0.001565765234
1686 3.91715244e-05 0.001462054504
1687 3.428204004e-05 0.001367815009
1688 3.071115216e-05 0.001282035223
1689 2.813437083e-05 0.001203811695
1690 2.63047082e-05 0.001132341486
1691 2.503404383e-05 0.001066913174
1692 2.417903941e-05 0.001006897517
1693 2.363048126e-05 0.0009517383775
1694 2.330520382e-05 0.0009009442354
1695 2.313995716e-05 0.0008540804582
1696 2.30867407e-05 0.0008107623623
1697 2.310924453e-05 0.0007706490591
1698 2.318012932e-05 0.0007334380351
1699 2.327894259e-05 0.000698860405
1700 2.339051914e-05 0.000666676766
