# freq   SSP(yyz)   PPP(zzz)
1550 0.0003298113108 6.436666841e-07
1551 0.0003369748679 6.562560773e-07
1552 0.0003443728174 6.69113544e-07
1553 0.0003520154311 6.822416414e-07
1554 0.0003599135464 6.956425011e-07
1555 0.0003680786032 7.093177664e-07
1556 0.000376522685 7.232685236e-07
1557 0.0003852585619 7.37495226e-07
1558 0.000394299738 7.519976101e-07
1559 0.0004036605024 7.667746029e-07
1560 0.0004133559837 7.818242211e-07
1561 0.0004234022101 7.971434595e-07
1562 0.0004338161734 8.127281694e-07
1563 0.000444615899 8.285729249e-07
1564 0.0004558205218 8.446708787e-07
1565 0.0004674503683 8.610136029e-07
1566 0.0004795270464 8.775909188e-07
1567 0.0004920735423 8.94390711e-07
1568 0.000505114327 9.113987283e-07
1569 0.0005186754715 9.285983696e-07
1570 0.0005327847731 9.459704559e-07
1571 0.0005474718931 9.634929888e-07
1572 0.0005627685073 9.811408964e-07
1573 0.0005787084713 9.988857686e-07
1574 0.0005953280006 1.016695585e-06
1575 0.0006126658696 1.034534442e-06
1576 0.0006307636288 1.052362276e-06
1577 0.0006496658445 1.070134606e-06
1578 0.0006694203625 1.087802297e-06
1579 0.0006900785988 1.105311351e-06
1580 0.0007116958605 1.122602771e-06
1581 0.0007343317004 1.139612495e-06
1582 0.0007580503091 1.156271448e-06
1583 0.0007829209508 1.172505762e-06
1584 0.0008090184449 1.188237203e-06
1585 0.0008364237035 1.203383896e-06
1586 0.0008652243274 1.217861426e-06
1587 0.0008955152722 1.231584454e-06
1588 0.000927399591 1.24446899e-06
1589 0.0009609892651 1.256435531e-06
1590 0.0009964061342 1.267413329e-06
1591 0.00103378294 1.277346114e-06
1592 0.001073264498 1.286199706e-06
1593 0.001115009021 1.293972081e-06
1594 0.001159189602 1.300706603e-06
1595 0.001205995901 1.306509351e-06
1596 0.001255636046 1.311571754e-06
1597 0.001308338796 1.316200103e-06
1598 0.001364355988 1.320853964e-06
1599 0.001423965337 1.326196175e-06
1600 0.001487473623 1.333157882e-06
1601 0.001555220336 1.343023187e-06
1602 0.001627581859 1.357539393e-06
1603 0.001704976266 1.379060741e-06
1604 0.001787868858 1.410736092e-06
1605 0.001876778542 1.45675439e-06
1606 0.001972285225 1.522666349e-06
1607 0.002075038389 1.615806952e-06
1608 0.002185767071 1.745851745e-06
1609 0.002305291508 1.925551185e-06
1610 0.002434536772 2.171702818e-06
1611 0.002574548774 2.506442074e-06
1612 0.00272651312 2.95896139e-06
1613 0.002891777403 3.567806957e-06
1614 0.003071877641 4.38395685e-06
1615 0.003268569773 5.474959127e-06
1616 0.00348386732 6.930511381e-06
1617 0.003720086621 8.870004215e-06
1618 0.003979901401 1.145274347e-05
1619 0.004266408938 1.48918262e-05
1620 0.004583210638 1.947299277e-05
1621 0.004934510639 2.55802305e-05
1622 0.005325236921 3.373047652e-05
1623 0.005761190433 4.462044676e-05
1624 0.006249228671 5.918934186e-05
1625 0.006797490487 7.870177288e-05
1626 0.007415667615 0.0001048553257
1627 0.008115323174 0.0001399160048
1628 0.008910243877 0.0001868811032
1629 0.009816783226 0.000249660981
1630 0.01085409569 0.0003332566935
1631 0.01204406243 0.0004438884729
1632 0.01341055914 0.0005890042635
1633 0.01497753633 0.0007770809487
1634 0.01676526089 0.001017149124
1635 0.01878419532 0.001318053648
1636 0.02102662554 0.001687604064
1637 0.02345742142 0.002131893153
1638 0.02600692557 0.002655024864
1639 0.02857002705 0.003259219908
1640 0.03101483149 0.003944923487
1641 0.03320129057 0.004710477225
1642 0.03500526065 0.005551314538
1643 0.03633909814 0.006459217935
1644 0.0371596717 0.00742242852
1645 0.03746056507 0.008427102121
1646 0.0372543811 0.009460006241
1647 0.0365567964 0.01051178021
1648 0.03538177275 0.01157961853
1649 0.03374893265 0.01266791336
1650 0.0316960802 0.01378552603
1651 0.02928782651 0.01493933151
1652 0.0266155445 0.0161253372
1653 0.02378979441 0.01732026024
1654 0.02092919612 0.01847715234
1655 0.01814880418 0.01952798587
1656 0.01554913134 0.02039384196
1657 0.01320657259 0.0209999261
1658 0.0111669475 0.02128983281
1659 0.009444217563 0.02123357643
1660 0.008024962941 0.02082740063
1661 0.006876890106 0.02008789287
1662 0.005958342903 0.01904526959
1663 0.005226220103 0.01773969139
1664 0.004641109496 0.01622136133
1665 0.004169737363 0.01455206524
1666 0.00378548254 0.01280445867
1667 0.003467791212 0.01105661098
1668 0.003201136827 0.009382450405
1669 0.002973921226 0.007841658856
1670 0.002777510541 0.006473064286
1671 0.002605467096 0.005293500209
1672 0.002452968643 0.004301328367
1673 0.002316379874 0.003482268265
1674 0.002192938786 0.002815264415
1675 0.002080527218 0.002277081084
1676 0.001977502837 0.001845276867
1677 0.001882576129 0.001499783172
1678 0.001794720438 0.001223504547
1679 0.001713106254 0.001002333687
1680 0.001637053206 0.0008248698704
1681 0.001565994945 0.0006820232061
1682 0.001499453353 0.0005666062752
1683 0.001437019509 0.0004729621985
1684 0.00137833954 0.0003966475067
1685 0.001323103991 0.0003341720846
1686 0.00127103978 0.0002827910167
1687 0.001221904017 0.0002403404907
1688 0.001175479209 0.0002051096376
1689 0.001131569478 0.0001757409801
1690 0.001089997552 0.0001511533056
1691 0.001050602327 0.0001304819573
1692 0.001013236869 0.0001130325746
1693 0.0009777667586 9.824519486e-05
1694 0.0009440686985 8.566632513e-05
1695 0.0009120293326 7.492715192e-05
1696 0.0008815442334 6.572648242e-05
1697 0.0008525170252 5.781734219e-05
1698 0.0008248586199 5.099640602e-05
1699 0.0007984865463 4.509563086e-05
1700 0.0007733243562 3.997560629e-05
