# freq   SSP(yyz)   PPP(zzz)
1550 0.0002368354513 3.936069535e-06
1551 0.0002413856347 4.00941009e-06
1552 0.0002460672327 4.084920114e-06
1553 0.0002508853114 4.162690615e-06
1554 0.0002558451809 4.242817663e-06
1555 0.0002609524094 4.325402743e-06
1556 0.0002662128384 4.41055314e-06
1557 0.0002716325987 4.498382354e-06
1558 0.0002772181274 4.589010561e-06
1559 0.0002829761863 4.6825651e-06
1560 0.0002889138817 4.779181015e-06
1561 0.0002950386852 4.879001644e-06
1562 0.000301358456 4.982179256e-06
1563 0.0003078814655 5.088875757e-06
1564 0.0003146164224 5.199263455e-06
1565 0.0003215725011 5.313525903e-06
1566 0.0003287593708 5.431858822e-06
1567 0.0003361872279 5.554471118e-06
1568 0.0003438668299 5.681585994e-06
1569 0.0003518095328 5.813442188e-06
1570 0.00036002733 5.950295326e-06
1571 0.000368532896 6.092419424e-06
1572 0.0003773396317 6.240108549e-06
1573 0.0003864617147 6.393678662e-06
1574 0.0003959141525 6.553469658e-06
1575 0.0004057128405 6.719847637e-06
1576 0.0004158746249 6.893207439e-06
1577 0.0004264173701 7.073975459e-06
1578 0.0004373600322 7.262612803e-06
1579 0.0004487227384 7.459618814e-06
1580 0.0004605268733 7.665535028e-06
1581 0.0004727951721 7.880949617e-06
1582 0.0004855518228 8.106502386e-06
1583 0.000498822576 8.342890411e-06
1584 0.0005126348659 8.590874405e-06
1585 0.0005270179413 8.851285925e-06
1586 0.0005420030083 9.125035543e-06
1587 0.0005576233875 9.413122141e-06
1588 0.0005739146845 9.716643493e-06
1589 0.000590914978 1.003680835e-05
1590 0.0006086650254 1.037495025e-05
1591 0.0006272084892 1.07325434e-05
1592 0.0006465921873 1.111122092e-05
1593 0.0006668663679 1.151279582e-05
1594 0.0006880850154 1.193928534e-05
1595 0.0007103061897 1.239293909e-05
1596 0.0007335924044 1.287627177e-05
1597 0.0007580110497 1.33921013e-05
1598 0.0007836348689 1.394359344e-05
1599 0.0008105424949 1.453431401e-05
1600 0.0008388190617 1.516829048e-05
1601 0.0008685569032 1.585008449e-05
1602 0.0008998563577 1.658487796e-05
1603 0.0009328267054 1.737857533e-05
1604 0.0009675872657 1.823792569e-05
1605 0.001004268702 1.917066918e-05
1606 0.001043014581 2.018571325e-05
1607 0.001083983276 2.129334577e-05
1608 0.001127350296 2.250549417e-05
1609 0.001173311199 2.383604205e-05
1610 0.001222085266 2.530121802e-05
1611 0.001273920216 2.692007653e-05
1612 0.001329098319 2.87150958e-05
1613 0.001387944437 3.071292669e-05
1614 0.001450836728 3.294533764e-05
1615 0.00151822105 3.545041615e-05
1616 0.00159063054 3.827410963e-05
1617 0.001668712473 4.147221904e-05
1618 0.001753265377 4.511300298e-05
1619 0.001845290647 4.928061247e-05
1620 0.001946064608 5.407966739e-05
1621 0.002057239393 5.964141533e-05
1622 0.002180984104 6.613210011e-05
1623 0.00232018166 7.37644321e-05
1624 0.002478701164 8.281342101e-05
1625 0.002661769516 9.363832568e-05
1626 0.00287646695 0.0001067130941
1627 0.003132363745 0.0001226683384
1628 0.003442289603 0.0001423483834
1629 0.003823166301 0.0001668866707
1630 0.004296714628 0.0001978006635
1631 0.004889646395 0.0002371014004
1632 0.005632676175 0.000287400401
1633 0.006557421575 0.0003519757261
1634 0.007690240289 0.0004347318321
1635 0.009042665901 0.0005399661052
1636 0.01059968159 0.0006718627215
1637 0.01230937762 0.0008336993126
1638 0.01407934137 0.001026879715
1639 0.01578462365 0.001250056617
1640 0.01728844147 0.001498701373
1641 0.0184711894 0.001765433296
1642 0.01925866669 0.002041192053
1643 0.01963935929 0.002316957124
1644 0.01966434012 0.002585358225
1645 0.01943058248 0.002841453261
1646 0.01905527632 0.003082320851
1647 0.01865094075 0.003305726577
1648 0.01830801174 0.003508563645
1649 0.01808627275 0.003685771227
1650 0.01801270216 0.003830075655
1651 0.01808251939 0.003932498127
1652 0.01826164876 0.003983408932
1653 0.01849089739 0.003973995832
1654 0.01869347039 0.00389810148
1655 0.01878709618 0.003754217071
1656 0.01869978565 0.003547036676
1657 0.01838517209 0.003287756027
1658 0.01783183118 0.00299262959
1659 0.01706286286 0.002680117294
1660 0.01612651145 0.002367675452
1661 0.01508247244 0.002069318898
1662 0.0139892535 0.001794527025
1663 0.01289586841 0.001548382356
1664 0.01183839295 0.001332445699
1665 0.01084016454 0.001145855028
1666 0.00991395432 0.0009863152087
1667 0.009064761911 0.0008508436965
1668 0.008292418999 0.0007362675354
1669 0.00759364335 0.0006395228591
1670 0.006963483805 0.000557816065
1671 0.006396251759 0.0004886943422
1672 0.005886083517 0.0004300594521
1673 0.005427263868 0.0003801483183
1674 0.00501440402 0.0003374967638
1675 0.004642531901 0.0003008972638
1676 0.00430712885 0.0002693572863
1677 0.004004132939 0.0002420616112
1678 0.003729921719 0.0002183399331
1679 0.003481282989 0.0001976398455
1680 0.003255379452 0.0001795047207
1681 0.003049711258 0.0001635557854
1682 0.002862078973 0.0001494776702
1683 0.002690548553 0.0001370067814
1684 0.002533419116 0.0001259219424
1685 0.002389193897 0.0001160368482
1686 0.002256554406 0.000107193967
1687 0.00213433767 9.925959733e-05
1688 0.00202151632 9.211984731e-05
1689 0.001917181252 8.567735368e-05
1690 0.001820526564 7.984859447e-05
1691 0.00173083651 7.456168004e-05
1692 0.001647474193 6.97545311e-05
1693 0.001569871786 6.537337024e-05
1694 0.001497522055 6.137146901e-05
1695 0.001429971017 5.770810342e-05
1696 0.001366811571 5.434768049e-05
1697 0.001307677966 5.125900524e-05
1698 0.001252240988 4.841466373e-05
1699 0.001200203771 4.579050201e-05
1700 0.001151298134 4.336518486e-05
